# Time (s), X (m), Y (m), Z (m), Vx (m/s), Vy (m/s), Vz (m/s), e0, e1, e2, e3, ω1 (rad/s), ω2 (rad/s), ω3 (rad/s)
0.000000,0.000000,0.000000,1471.466078,0.000000,0.000000,0.000000,0.999962,0.000000,-0.000000,-0.008727,0.000000,0.000000,0.000000
0.450000,-0.000403,0.000528,1477.788250,-0.009377,0.012296,33.664747,0.999962,0.000169,0.000131,-0.008727,0.008034,0.006351,0.000000
0.900000,0.008507,-0.011164,1502.550241,0.151307,-0.198452,76.851415,0.999902,0.008660,0.006725,-0.008726,0.068222,0.053963,0.000000
1.350000,0.315961,-0.412607,1547.246867,1.452688,-1.900876,121.826296,0.999494,0.024448,0.018376,-0.008734,0.041795,0.023887,0.000000
1.800000,1.391961,-1.860266,1612.121669,3.189018,-4.430400,166.264233,0.999605,0.022795,0.013876,-0.008823,-0.016008,-0.025076,0.000000
2.250000,3.099179,-4.334885,1696.570579,4.506297,-6.720024,208.582540,0.999393,0.029053,0.017060,-0.008832,0.017973,0.002935,0.000000
2.700000,5.448200,-7.942752,1799.339783,5.867647,-9.268435,247.671652,0.999338,0.031243,0.016395,-0.008885,0.031901,0.017121,0.000000
3.150000,8.393900,-12.715544,1918.969057,7.114952,-11.781400,281.478257,0.999220,0.034624,0.016759,-0.008927,0.023281,0.009171,0.000000
3.600000,11.683582,-18.199075,2047.202900,7.380960,-12.322924,284.649256,0.999100,0.037829,0.016950,-0.008973,0.005422,-0.007724,0.000000
4.050000,14.988870,-23.696896,2173.685006,7.281805,-12.036505,276.517553,0.999090,0.038854,0.015075,-0.009060,0.000691,-0.012218,0.000000
4.500000,18.234009,-29.019907,2295.971058,7.151761,-11.632501,267.072098,0.999068,0.040029,0.013289,-0.009146,0.002175,-0.010989,0.000000
4.950000,21.427224,-34.166801,2414.111896,7.048531,-11.250018,258.057638,0.999035,0.041348,0.011579,-0.009232,0.003886,-0.009629,0.000000
5.400000,24.579596,-39.145778,2528.274742,6.968314,-10.884481,249.387491,0.998993,0.042751,0.009880,-0.009318,0.004995,-0.008905,0.000000
5.850000,27.698175,-43.966256,2638.608054,6.895883,-10.545035,241.032922,0.998973,0.043380,0.009139,-0.009356,0.000079,-0.001797,0.000000
6.300000,30.788492,-48.637516,2745.248081,6.837176,-10.223769,232.970182,0.998953,0.043948,0.008493,-0.009389,0.000286,-0.000704,0.000000
6.750000,33.854698,-53.169499,2848.327490,6.788414,-9.924906,225.210283,0.998933,0.044524,0.007849,-0.009422,0.001484,-0.001043,0.000000
7.200000,36.900497,-57.572492,2947.979869,6.748219,-9.647742,217.733888,0.998912,0.045086,0.007249,-0.009453,0.002899,-0.002326,0.000000
7.650000,39.929182,-61.855746,3044.326179,6.714470,-9.390913,210.512371,0.998890,0.045652,0.006704,-0.009481,0.003460,-0.003241,0.000000
8.100000,42.943732,-66.027539,3137.475527,6.685033,-9.152816,203.521300,0.998864,0.046283,0.006162,-0.009510,0.002827,-0.002456,0.000000
8.550000,45.943930,-70.096557,3227.526259,6.652904,-8.933383,196.736676,0.998848,0.046584,0.006546,-0.009494,0.001311,0.001452,0.000000
9.000000,48.932065,-74.069576,3314.566466,6.624736,-8.728212,190.138307,0.998826,0.047040,0.006618,-0.009493,0.001288,0.002642,0.000000
9.450000,51.907670,-77.953676,3398.676387,6.600620,-8.536481,183.710891,0.998805,0.047446,0.006923,-0.009481,0.002494,0.000061,0.000000
9.900000,54.871597,-81.754829,3479.929851,6.573703,-8.359271,177.440682,0.998780,0.047904,0.007275,-0.009467,0.002025,0.001680,0.000000
10.350000,57.824577,-85.478576,3558.394401,6.549581,-8.193032,171.313392,0.998752,0.048470,0.007473,-0.009462,0.002468,0.001509,0.000000
10.800000,60.766429,-89.130197,3634.131638,6.526318,-8.037791,165.317693,0.998722,0.049028,0.007860,-0.009447,0.002849,0.001076,0.000000
11.250000,63.698110,-92.714162,3707.198636,6.502947,-7.892792,159.444140,0.998686,0.049705,0.008124,-0.009439,0.002897,0.001909,0.000000
11.700000,66.620950,-96.234451,3777.648416,6.494868,-7.751567,153.684370,0.998641,0.050620,0.007965,-0.009454,0.007816,-0.009366,0.000000
12.150000,69.542527,-99.692255,3845.530329,6.483171,-7.620513,148.029752,0.998553,0.052637,0.005264,-0.009606,0.007030,-0.006429,0.000000
12.600000,72.457493,-103.093511,3910.889946,6.478612,-7.495027,142.473417,0.998482,0.054047,0.004295,-0.009664,0.008060,-0.008011,0.000000
13.050000,75.373843,-106.438703,3973.770142,6.479602,-7.375027,137.008714,0.998373,0.056137,0.001870,-0.009803,0.008956,-0.009013,0.000000
13.500000,78.289037,-109.732160,4034.210585,6.480122,-7.262439,131.629363,0.998271,0.057934,0.000445,-0.009886,0.008424,-0.006536,0.000000
13.950000,81.207690,-112.975234,4092.248605,6.490857,-7.152609,126.330201,0.998139,0.060129,-0.001687,-0.010009,0.010661,-0.010648,0.000000
14.400000,84.129911,-116.170790,4147.918896,6.497344,-7.050662,121.105345,0.997992,0.062406,-0.003695,-0.010125,0.009925,-0.007289,0.000000
14.850000,87.056686,-119.321190,4201.253938,6.511704,-6.951638,115.950575,0.997832,0.064775,-0.005561,-0.010231,0.011635,-0.009844,0.000000
15.300000,89.990399,-122.428105,4252.284180,6.526429,-6.857969,110.860959,0.997634,0.067502,-0.007939,-0.010368,0.012514,-0.010124,0.000000
15.750000,92.930499,-125.494123,4301.037935,6.541400,-6.769346,105.832257,0.997419,0.070317,-0.010068,-0.010487,0.012995,-0.009116,0.000000
16.200000,95.878368,-128.520984,4347.541801,6.560648,-6.684005,100.860794,0.997170,0.073396,-0.012347,-0.010614,0.014741,-0.011054,0.000000
16.650000,98.834960,-131.510461,4391.820621,6.578513,-6.603873,95.942421,0.996874,0.076829,-0.014948,-0.010760,0.015608,-0.010686,0.000000
17.100000,101.796854,-134.466162,4433.897246,6.584996,-6.533523,91.072802,0.996613,0.079885,-0.016261,-0.010812,0.011748,-0.000658,0.000000
17.550000,104.762999,-137.390537,4473.793314,6.600288,-6.463225,86.250839,0.996395,0.082566,-0.016239,-0.010764,0.013509,-0.001495,0.000000
18.000000,107.738131,-140.283157,4511.529651,6.622036,-6.393710,81.473170,0.996065,0.086204,-0.017501,-0.010806,0.018819,-0.008815,0.000000
18.450000,110.721570,-143.146004,4547.125100,6.636150,-6.331353,76.735141,0.995629,0.090659,-0.019632,-0.010907,0.020452,-0.008309,0.000000
18.900000,113.709980,-145.982200,4580.596833,6.645767,-6.274458,72.034170,0.995174,0.095217,-0.021059,-0.010942,0.020597,-0.004303,0.000000
19.350000,116.703310,-148.793222,4611.961168,6.658726,-6.219088,67.368592,0.994677,0.100067,-0.022023,-0.010926,0.023372,-0.004764,0.000000
19.800000,119.703271,-151.579595,4641.233490,6.674531,-6.165192,62.735831,0.994046,0.105817,-0.023562,-0.010947,0.028339,-0.008582,0.000000
20.250000,122.710150,-154.342385,4668.427879,6.688861,-6.114511,58.132846,0.993230,0.112698,-0.025903,-0.011024,0.033320,-0.011219,0.000000
20.700000,125.722805,-157.083198,4693.557130,6.700320,-6.067418,53.557065,0.992226,0.120619,-0.028562,-0.011108,0.037860,-0.011519,0.000000
21.150000,128.740247,-159.803443,4716.633019,6.710493,-6.022878,49.006496,0.991013,0.129593,-0.031198,-0.011156,0.043060,-0.011298,0.000000
21.600000,131.762307,-162.504005,4737.666487,6.721036,-5.979789,44.479331,0.989523,0.139893,-0.033906,-0.011169,0.050016,-0.012240,0.000000
22.050000,134.789301,-165.185384,4756.667648,6.732402,-5.937570,39.973702,0.987629,0.151965,-0.037013,-0.011173,0.059226,-0.014707,0.000000
22.500000,137.821529,-167.847915,4773.645763,6.744193,-5.895989,35.487708,0.985164,0.166312,-0.040817,-0.011193,0.070842,-0.018235,0.000000
22.950000,140.859071,-170.491834,4788.609263,6.755958,-5.854806,31.019568,0.981908,0.183464,-0.045498,-0.011236,0.085100,-0.022370,0.000000
23.400000,143.901865,-173.117241,4801.565821,6.767533,-5.813640,26.567722,0.977563,0.204016,-0.051168,-0.011293,0.102485,-0.026997,0.000000
23.850000,146.949837,-175.724044,4812.522465,6.778999,-5.772041,22.130869,0.971712,0.228663,-0.057942,-0.011349,0.123675,-0.032282,0.000000
24.300000,150.002976,-178.311957,4821.485699,6.790531,-5.729632,17.707970,0.963761,0.258217,-0.065978,-0.011385,0.149417,-0.038512,0.000000
24.750000,153.061345,-180.880567,4828.461617,6.802261,-5.686240,13.298248,0.952880,0.293570,-0.075483,-0.011382,0.180399,-0.045958,0.000000
25.200000,156.125048,-183.429426,4833.456042,6.814243,-5.641852,8.901321,0.937920,0.335633,-0.086685,-0.011321,0.217286,-0.054844,0.000000
25.650000,159.194215,-185.958043,4836.474814,6.826571,-5.596187,4.517854,0.917304,0.385294,-0.099815,-0.011180,0.261245,-0.065478,0.000000
26.100000,162.269065,-188.465612,4837.525025,6.839585,-5.547967,0.151516,0.888772,0.443510,-0.115123,-0.010927,0.315469,-0.078637,0.000000
26.550000,165.350017,-190.950546,4836.614850,6.853706,-5.495524,-4.187762,0.848763,0.511658,-0.132965,-0.010510,0.387287,-0.096095,0.000000
27.000000,168.437425,-193.411434,4833.761767,6.867809,-5.442771,-8.484427,0.791321,0.591631,-0.153823,-0.009842,0.486774,-0.120287,0.000000
27.450000,171.530363,-195.851435,4828.987319,6.877271,-5.406337,-12.725222,0.707271,0.684138,-0.177863,-0.008785,0.618330,-0.152239,0.000000
27.900000,174.658402,-198.160537,4822.587091,7.111448,-4.536198,-14.934719,0.665138,0.722646,-0.187846,-0.008234,0.675883,-0.166192,0.000000
28.350000,177.937637,-199.907372,4815.666770,7.455199,-3.255129,-15.804902,0.665108,0.722672,-0.187853,-0.008234,0.675923,-0.166202,0.000000
28.800000,181.362377,-201.110432,4808.377411,7.759660,-2.113855,-16.576017,0.665114,0.722667,-0.187852,-0.008234,0.675914,-0.166200,0.000000
29.250000,184.916312,-201.827608,4800.762694,8.030188,-1.092767,-17.251157,0.665114,0.722667,-0.187852,-0.008234,0.675915,-0.166200,0.000000
29.700000,188.585194,-202.109258,4792.864795,8.270829,-0.177097,-17.834878,0.665114,0.722667,-0.187852,-0.008234,0.675915,-0.166200,0.000000
30.150000,192.356218,-202.000481,4784.723515,8.484801,0.644825,-18.333760,0.665114,0.722667,-0.187852,-0.008234,0.675915,-0.166200,0.000000
30.600000,196.218005,-201.541220,4776.375338,8.674693,1.382315,-18.755844,0.665114,0.722667,-0.187852,-0.008234,0.675915,-0.166200,0.000000
31.050000,200.160274,-200.767482,4767.852865,8.842763,2.043438,-19.109702,0.665114,0.722667,-0.187852,-0.008234,0.675915,-0.166200,0.000000
31.500000,204.173584,-199.712287,4759.185226,8.991088,2.635564,-19.403866,0.665114,0.722667,-0.187852,-0.008234,0.675915,-0.166200,0.000000
31.950000,208.249518,-198.405035,4750.397256,9.121548,3.165323,-19.646487,0.665114,0.722667,-0.187852,-0.008234,0.675915,-0.166200,0.000000
32.400000,212.380447,-196.872343,4741.510436,9.235882,3.638817,-19.845246,0.665114,0.722667,-0.187852,-0.008234,0.675915,-0.166200,0.000000
32.850000,216.559556,-195.137975,4732.542654,9.335704,4.061697,-20.006880,0.665114,0.722667,-0.187852,-0.008234,0.675915,-0.166200,0.000000
33.300000,220.780625,-193.223622,4723.509304,9.422526,4.439251,-20.137400,0.665114,0.722667,-0.187852,-0.008234,0.675915,-0.166200,0.000000
33.750000,225.038090,-191.148697,4714.423179,9.497739,4.776339,-20.241988,0.665114,0.722667,-0.187852,-0.008234,0.675915,-0.166200,0.000000
34.200000,229.327030,-188.930352,4705.294872,9.562600,5.077343,-20.325104,0.665114,0.722667,-0.187852,-0.008234,0.675915,-0.166200,0.000000
34.650000,233.643041,-186.583932,4696.133256,9.618257,5.346261,-20.390604,0.665114,0.722667,-0.187852,-0.008234,0.675915,-0.166200,0.000000
35.100000,237.982192,-184.123141,4686.945638,9.665752,5.586719,-20.441709,0.665114,0.722667,-0.187852,-0.008234,0.675915,-0.166200,0.000000
35.550000,242.341021,-181.560058,4677.737913,9.706017,5.801963,-20.481068,0.665114,0.722667,-0.187852,-0.008234,0.675915,-0.166200,0.000000
36.000000,246.716562,-178.905020,4668.514512,9.739866,5.994825,-20.510739,0.665114,0.722667,-0.187852,-0.008234,0.675915,-0.166200,0.000000
36.450000,251.105995,-176.167872,4659.279537,9.768076,6.168013,-20.532632,0.665114,0.722667,-0.187852,-0.008234,0.675915,-0.166200,0.000000
36.900000,255.507008,-173.356677,4650.036001,9.791292,6.323765,-20.548170,0.665114,0.722667,-0.187852,-0.008234,0.675915,-0.166200,0.000000
37.350000,259.917461,-170.478914,4640.786563,9.810110,6.464163,-20.558615,0.665114,0.722667,-0.187852,-0.008234,0.675915,-0.166200,0.000000
37.800000,264.335481,-167.541117,4631.533369,9.825058,6.591040,-20.564997,0.665114,0.722667,-0.187852,-0.008234,0.675915,-0.166200,0.000000
38.250000,268.759475,-164.548861,4622.278045,9.836588,6.705969,-20.568112,0.665114,0.722667,-0.187852,-0.008234,0.675915,-0.166200,0.000000
38.700000,273.187942,-161.507386,4613.022045,9.845126,6.810431,-20.568673,0.665114,0.722667,-0.187852,-0.008234,0.675915,-0.166200,0.000000
39.150000,277.619666,-158.420949,4603.766320,9.851018,6.905638,-20.567143,0.665114,0.722667,-0.187852,-0.008234,0.675915,-0.166200,0.000000
39.600000,282.053503,-155.293557,4594.511703,9.854592,6.992729,-20.563931,0.665114,0.722667,-0.187852,-0.008234,0.675915,-0.166200,0.000000
40.050000,286.488478,-152.128620,4585.258848,9.856128,7.072676,-20.559358,0.665114,0.722667,-0.187852,-0.008234,0.675915,-0.166200,0.000000
40.500000,290.923743,-148.929113,4576.008274,9.855869,7.146330,-20.553686,0.665114,0.722667,-0.187852,-0.008234,0.675915,-0.166200,0.000000
40.950000,295.358516,-145.697781,4566.760448,9.854040,7.214474,-20.547149,0.665114,0.722667,-0.187852,-0.008234,0.675915,-0.166200,0.000000
41.400000,299.792161,-142.436856,4557.515714,9.850825,7.277747,-20.539924,0.665114,0.722667,-0.187852,-0.008234,0.675915,-0.166200,0.000000
41.850000,304.224074,-139.148458,4548.274388,9.846397,7.336756,-20.532174,0.665114,0.722667,-0.187852,-0.008234,0.675915,-0.166200,0.000000
42.300000,308.653751,-135.834364,4539.036684,9.840903,7.392009,-20.524011,0.665114,0.722667,-0.187852,-0.008234,0.675915,-0.166200,0.000000
42.750000,313.080747,-132.496144,4529.802755,9.834472,7.443957,-20.515512,0.665114,0.722667,-0.187852,-0.008234,0.675915,-0.166200,0.000000
43.200000,317.504653,-129.135240,4520.572733,9.827223,7.493012,-20.506747,0.665114,0.722667,-0.187852,-0.008234,0.675915,-0.166200,0.000000
43.650000,321.925136,-125.752825,4511.346704,9.819250,7.539510,-20.497761,0.665114,0.722667,-0.187852,-0.008234,0.675915,-0.166200,0.000000
44.100000,326.341882,-122.350017,4502.124747,9.810645,7.583771,-20.488598,0.665114,0.722667,-0.187852,-0.008234,0.675915,-0.166200,0.000000
44.550000,330.754630,-118.927741,4492.906933,9.801486,7.626061,-20.479296,0.665114,0.722667,-0.187852,-0.008234,0.675915,-0.166200,0.000000
45.000000,335.163150,-115.486818,4483.693326,9.791844,7.666616,-20.469894,0.665114,0.722667,-0.187852,-0.008234,0.675915,-0.166200,0.000000
45.450000,339.567229,-112.028005,4474.483979,9.781777,7.705650,-20.460420,0.665114,0.722667,-0.187852,-0.008234,0.675915,-0.166200,0.000000
45.900000,343.966689,-108.551935,4465.278920,9.771329,7.743341,-20.450895,0.665114,0.722667,-0.187852,-0.008234,0.675915,-0.166200,0.000000
46.350000,348.361359,-105.059212,4456.078173,9.760541,7.779856,-20.441334,0.665114,0.722667,-0.187852,-0.008234,0.675915,-0.166200,0.000000
46.800000,352.751115,-101.550300,4446.881746,9.749464,7.815335,-20.431743,0.665114,0.722667,-0.187852,-0.008234,0.675915,-0.166200,0.000000
47.250000,357.135850,-98.025599,4437.689641,9.738159,7.849904,-20.422127,0.665114,0.722667,-0.187852,-0.008234,0.675915,-0.166200,0.000000
47.700000,361.515460,-94.485507,4428.501857,9.726682,7.883691,-20.412488,0.665114,0.722667,-0.187852,-0.008234,0.675915,-0.166200,0.000000
48.150000,365.889844,-90.930381,4419.318397,9.715048,7.916789,-20.402830,0.665114,0.722667,-0.187852,-0.008234,0.675915,-0.166200,0.000000
48.600000,370.258910,-87.360508,4410.139266,9.703194,7.949233,-20.393164,0.665114,0.722667,-0.187852,-0.008234,0.675915,-0.166200,0.000000
49.050000,374.622567,-83.776166,4400.964469,9.691050,7.981055,-20.383497,0.665114,0.722667,-0.187852,-0.008234,0.675915,-0.166200,0.000000
49.500000,378.980658,-80.177660,4391.794013,9.678450,8.012236,-20.373838,0.665114,0.722667,-0.187852,-0.008234,0.675915,-0.166200,0.000000
49.950000,383.332552,-76.565477,4382.627897,9.664533,8.042396,-20.364204,0.665114,0.722667,-0.187852,-0.008234,0.675915,-0.166200,0.000000
50.400000,387.677401,-72.940188,4373.466123,9.648125,8.070992,-20.354612,0.665114,0.722667,-0.187852,-0.008234,0.675915,-0.166200,0.000000
50.850000,392.014347,-69.302369,4364.308690,9.628050,8.097484,-20.345080,0.665114,0.722667,-0.187852,-0.008234,0.675915,-0.166200,0.000000
51.300000,396.341801,-65.652935,4355.155583,9.603241,8.121376,-20.335612,0.665114,0.722667,-0.187852,-0.008234,0.675915,-0.166200,0.000000
51.750000,400.656968,-61.993360,4346.006762,9.572805,8.142247,-20.326191,0.665114,0.722667,-0.187852,-0.008234,0.675915,-0.166200,0.000000
52.200000,404.956944,-58.325167,4336.862186,9.535863,8.159684,-20.316796,0.665114,0.722667,-0.187852,-0.008234,0.675915,-0.166200,0.000000
52.650000,409.238843,-54.649874,4327.721815,9.491899,8.173452,-20.307409,0.665114,0.722667,-0.187852,-0.008234,0.675915,-0.166200,0.000000
53.100000,413.499899,-50.968943,4318.585626,9.442844,8.184534,-20.298012,0.665114,0.722667,-0.187852,-0.008234,0.675915,-0.166200,0.000000
53.550000,417.737812,-47.283598,4309.453623,9.390792,8.193990,-20.288606,0.665114,0.722667,-0.187852,-0.008234,0.675915,-0.166200,0.000000
54.000000,421.951311,-43.594520,4300.325844,9.335693,8.201810,-20.279222,0.665114,0.722667,-0.187852,-0.008234,0.675915,-0.166200,0.000000
54.450000,426.139305,-39.902300,4291.202299,9.277596,8.208028,-20.269873,0.665114,0.722667,-0.187852,-0.008234,0.675915,-0.166200,0.000000
54.900000,430.300705,-36.207527,4282.082961,9.216973,8.212891,-20.260549,0.665114,0.722667,-0.187852,-0.008234,0.675915,-0.166200,0.000000
55.350000,434.434297,-32.510851,4272.967810,9.154193,8.216594,-20.251250,0.665114,0.722667,-0.187852,-0.008234,0.675915,-0.166200,0.000000
55.800000,438.539005,-28.812849,4263.856832,9.089537,8.219287,-20.241976,0.665114,0.722667,-0.187852,-0.008234,0.675915,-0.166200,0.000000
56.250000,442.614217,-25.113852,4254.750019,9.023194,8.221068,-20.232730,0.665114,0.722667,-0.187852,-0.008234,0.675915,-0.166200,0.000000
56.700000,446.659311,-21.414196,4245.647361,8.955352,8.222038,-20.223512,0.665114,0.722667,-0.187852,-0.008234,0.675915,-0.166200,0.000000
57.150000,450.673575,-17.714267,4236.548843,8.886221,8.222308,-20.214325,0.665114,0.722667,-0.187852,-0.008234,0.675915,-0.166200,0.000000
57.600000,454.656511,-14.014337,4227.454454,8.815947,8.221956,-20.205167,0.665114,0.722667,-0.187852,-0.008234,0.675915,-0.166200,0.000000
58.050000,458.607774,-10.314592,4218.364183,8.744636,8.221036,-20.196038,0.665114,0.722667,-0.187852,-0.008234,0.675915,-0.166200,0.000000
58.500000,462.526917,-6.615280,4209.278018,8.672420,8.219621,-20.186939,0.665114,0.722667,-0.187852,-0.008234,0.675915,-0.166200,0.000000
58.950000,466.413448,-2.916669,4200.195942,8.599448,8.217788,-20.177868,0.665114,0.722667,-0.187852,-0.008234,0.675915,-0.166200,0.000000
59.400000,470.266883,0.780976,4191.117941,8.525866,8.215614,-20.168825,0.665114,0.722667,-0.187852,-0.008234,0.675915,-0.166200,0.000000
59.850000,474.086917,4.477484,4182.044003,8.451765,8.213150,-20.159811,0.665114,0.722667,-0.187852,-0.008234,0.675915,-0.166200,0.000000
60.300000,477.873397,8.172768,4172.974115,8.377195,8.210419,-20.150823,0.665114,0.722667,-0.187852,-0.008234,0.675915,-0.166200,0.000000
60.750000,481.626176,11.866743,4163.908268,8.302203,8.207448,-20.141860,0.665114,0.722667,-0.187852,-0.008234,0.675915,-0.166200,0.000000
61.200000,485.345113,15.559327,4154.846451,8.226834,8.204261,-20.132922,0.665114,0.722667,-0.187852,-0.008234,0.675915,-0.166200,0.000000
61.650000,489.030079,19.250444,4145.788652,8.151129,8.200878,-20.124006,0.665114,0.722667,-0.187852,-0.008234,0.675915,-0.166200,0.000000
62.100000,492.680945,22.940018,4136.734860,8.075130,8.197324,-20.115112,0.665114,0.722667,-0.187852,-0.008234,0.675915,-0.166200,0.000000
62.550000,496.297587,26.627977,4127.685064,7.998878,8.193618,-20.106238,0.665114,0.722667,-0.187852,-0.008234,0.675915,-0.166200,0.000000
63.000000,499.879889,30.314251,4118.639253,7.922411,8.189782,-20.097384,0.665114,0.722667,-0.187852,-0.008234,0.675915,-0.166200,0.000000
63.450000,503.427739,33.998769,4109.597417,7.845767,8.185837,-20.088549,0.665114,0.722667,-0.187852,-0.008234,0.675915,-0.166200,0.000000
63.900000,506.941030,37.681468,4100.559546,7.768983,8.181800,-20.079734,0.665114,0.722667,-0.187852,-0.008234,0.675915,-0.166200,0.000000
