# Time (s), X (m), Y (m), Z (m), Vx (m/s), Vy (m/s), Vz (m/s), e0, e1, e2, e3, ω1 (rad/s), ω2 (rad/s), ω3 (rad/s)
0.000000,0.000000,0.000000,668.000000,0.000000,0.000000,0.000000,0.892773,-0.051645,0.025846,-0.446791,0.000000,0.000000,0.000000
0.450000,-0.000000,-0.000000,668.000000,-0.000000,-0.000000,-0.000000,0.892773,-0.051645,0.025846,-0.446791,0.000000,-0.000000,0.000000
0.900000,0.082339,0.061661,668.886156,0.730180,0.546809,7.858382,0.892773,-0.051645,0.025846,-0.446791,0.000000,-0.000000,0.000000
1.350000,0.989152,0.736330,678.407703,3.650549,2.692416,36.993438,0.892802,-0.051829,0.025069,-0.446755,0.003696,-0.016493,0.000000
1.800000,3.569219,2.690548,704.434930,7.833618,6.208689,80.202768,0.893097,-0.054837,0.015240,-0.446249,0.009912,-0.076953,0.000000
2.250000,7.757008,6.364252,749.090960,10.361783,10.024936,114.967751,0.893273,-0.062711,-0.002766,-0.445110,-0.005604,-0.070169,0.000000
2.700000,12.587010,11.401211,803.936092,10.971292,12.020055,125.786883,0.893043,-0.066747,-0.003426,-0.444981,-0.017628,0.041411,0.000000
3.150000,17.572937,16.901316,860.290665,11.168730,12.266443,123.713908,0.892904,-0.065311,0.004032,-0.445466,-0.000146,-0.002701,0.000000
3.600000,22.622533,22.405740,915.040039,11.237293,12.202602,119.470060,0.892916,-0.068802,-0.003291,-0.444922,-0.003273,-0.048083,0.000000
4.050000,27.661363,27.893918,967.721626,11.149058,12.186693,114.579413,0.892733,-0.073123,-0.007165,-0.444556,-0.013535,0.003483,0.000000
4.500000,32.664349,33.359321,1018.110078,11.098625,12.078285,109.305557,0.892552,-0.074280,-0.003573,-0.444770,-0.008371,0.006980,0.000000
4.950000,37.653701,38.747251,1066.046532,11.074550,11.869197,103.766179,0.892441,-0.076602,-0.005257,-0.444582,-0.005241,-0.027419,0.000000
5.400000,42.624416,44.046681,1111.503086,11.010443,11.692957,98.276922,0.892252,-0.081110,-0.010459,-0.444069,-0.010677,-0.025051,0.000000
5.850000,47.560475,49.274559,1154.500027,10.925674,11.529266,92.751942,0.891972,-0.085155,-0.012074,-0.443834,-0.014258,-0.005381,0.000000
6.300000,52.461040,54.417791,1194.976071,10.860267,11.327361,87.166788,0.891690,-0.088328,-0.011446,-0.443796,-0.013201,-0.006259,0.000000
6.750000,57.337969,59.468384,1232.971893,10.816186,11.120772,81.725957,0.891396,-0.092208,-0.012842,-0.443560,-0.012726,-0.020523,0.000000
7.200000,62.195154,64.429078,1268.548587,10.769969,10.930762,76.412877,0.891019,-0.097478,-0.016495,-0.443070,-0.015317,-0.027575,0.000000
7.650000,67.030006,69.309633,1301.760643,10.717960,10.763974,71.214425,0.890519,-0.103579,-0.020090,-0.442542,-0.019213,-0.024382,0.000000
8.100000,71.841739,74.118918,1332.657291,10.667994,10.612676,66.120844,0.889910,-0.109950,-0.022374,-0.442120,-0.022683,-0.019492,0.000000
8.550000,76.631811,78.862387,1361.283793,10.622275,10.470435,61.123392,0.889190,-0.116664,-0.023533,-0.441788,-0.026581,-0.017264,0.000000
9.000000,81.402946,83.542992,1387.681440,10.584050,10.332981,56.213270,0.888316,-0.124203,-0.024342,-0.441447,-0.030688,-0.020086,0.000000
9.450000,86.158407,88.162904,1411.887568,10.552147,10.201092,51.382023,0.887236,-0.133053,-0.025692,-0.440963,-0.035052,-0.026428,0.000000
9.900000,90.900375,92.725141,1433.935864,10.523589,10.076974,46.621557,0.885888,-0.143516,-0.027976,-0.440253,-0.040092,-0.033718,0.000000
10.350000,95.629800,97.233518,1453.856472,10.496143,9.961749,41.924444,0.884191,-0.155771,-0.031118,-0.439287,-0.046271,-0.040516,0.000000
10.800000,100.346960,101.691962,1471.676333,10.469074,9.854847,37.283817,0.882035,-0.170015,-0.034871,-0.438056,-0.053944,-0.046877,0.000000
11.250000,105.052048,106.103931,1487.419478,10.442548,9.754943,32.693639,0.879270,-0.186543,-0.039054,-0.436531,-0.063385,-0.053581,0.000000
11.700000,109.745395,110.472237,1501.107322,10.416960,9.660561,28.148241,0.875693,-0.205781,-0.043633,-0.434639,-0.074850,-0.061513,0.000000
12.150000,114.427495,114.799099,1512.758849,10.392591,9.570577,23.642498,0.871023,-0.228263,-0.048700,-0.432251,-0.088605,-0.071349,0.000000
12.600000,119.098916,119.086302,1522.390788,10.369495,9.484208,19.171522,0.864882,-0.254600,-0.054425,-0.429177,-0.104918,-0.083500,0.000000
13.050000,123.760215,123.335360,1530.017762,10.347577,9.400972,14.730812,0.856763,-0.285438,-0.060998,-0.425155,-0.124035,-0.098170,0.000000
13.500000,128.411878,127.547567,1535.652458,10.326611,9.320324,10.316328,0.846002,-0.321406,-0.068600,-0.419843,-0.146181,-0.115471,0.000000
13.950000,133.054246,131.723852,1539.305992,10.306174,9.241005,5.925331,0.831724,-0.363098,-0.077390,-0.412799,-0.171770,-0.135648,0.000000
14.400000,137.687380,135.864196,1540.988444,10.285376,9.159882,1.558361,0.812748,-0.411121,-0.087515,-0.403429,-0.202023,-0.159602,0.000000
14.850000,142.310803,139.966622,1540.712686,10.262593,9.070852,-2.774516,0.787383,-0.466265,-0.099152,-0.390889,-0.239957,-0.189677,0.000000
15.300000,146.923013,144.025231,1538.498066,10.225042,8.924250,-6.862665,0.755361,-0.525630,-0.111694,-0.375040,-0.287163,-0.227103,0.000000
15.750000,151.477452,147.858645,1535.148612,10.020291,8.126518,-8.007243,0.755366,-0.525620,-0.111692,-0.375043,-0.287155,-0.227096,0.000000
16.200000,155.942952,151.345809,1531.299968,9.828773,7.381549,-9.085534,0.755361,-0.525630,-0.111694,-0.375040,-0.287163,-0.227103,0.000000
16.650000,160.324837,154.508038,1526.981622,9.648010,6.679786,-10.096198,0.755362,-0.525627,-0.111694,-0.375041,-0.287161,-0.227101,0.000000
17.100000,164.627497,157.363037,1522.223490,9.476435,6.015224,-11.039742,0.755362,-0.525628,-0.111694,-0.375041,-0.287161,-0.227101,0.000000
17.550000,168.854796,159.926522,1517.055924,9.312926,5.383600,-11.915971,0.755362,-0.525628,-0.111694,-0.375041,-0.287161,-0.227101,0.000000
18.000000,173.010170,162.212581,1511.509034,9.156777,4.782258,-12.725435,0.755362,-0.525628,-0.111694,-0.375041,-0.287161,-0.227101,0.000000
18.450000,177.096863,164.234590,1505.612690,9.007472,4.209275,-13.469086,0.755362,-0.525628,-0.111694,-0.375041,-0.287161,-0.227101,0.000000
18.900000,181.117875,166.005019,1499.396115,8.864734,3.663647,-14.148663,0.755362,-0.525628,-0.111694,-0.375041,-0.287161,-0.227101,0.000000
19.350000,185.076098,167.535945,1492.887677,8.728400,3.144789,-14.766492,0.755362,-0.525628,-0.111694,-0.375041,-0.287161,-0.227101,0.000000
19.800000,188.974386,168.839314,1486.114582,8.598352,2.652275,-15.325432,0.755362,-0.525628,-0.111694,-0.375041,-0.287161,-0.227101,0.000000
20.250000,192.815545,169.926895,1479.102568,8.474493,2.185743,-15.828762,0.755362,-0.525628,-0.111694,-0.375041,-0.287161,-0.227101,0.000000
20.700000,196.602340,170.810305,1471.875942,8.356730,1.744823,-16.280037,0.755362,-0.525628,-0.111694,-0.375041,-0.287161,-0.227101,0.000000
21.150000,200.337491,171.500970,1464.457270,8.244953,1.329066,-16.683011,0.755362,-0.525628,-0.111694,-0.375041,-0.287161,-0.227101,0.000000
21.600000,204.023660,172.010091,1456.867403,8.139029,0.937918,-17.041494,0.755362,-0.525628,-0.111694,-0.375041,-0.287161,-0.227101,0.000000
22.050000,207.663452,172.348603,1449.125544,8.038805,0.570726,-17.359274,0.755362,-0.525628,-0.111694,-0.375041,-0.287161,-0.227101,0.000000
22.500000,211.259386,172.527109,1441.249099,7.944100,0.226725,-17.640042,0.755362,-0.525628,-0.111694,-0.375041,-0.287161,-0.227101,0.000000
22.950000,214.813916,172.555910,1433.254172,7.854717,-0.094914,-17.887363,0.755362,-0.525628,-0.111694,-0.375041,-0.287161,-0.227101,0.000000
23.400000,218.329391,172.444871,1425.155187,7.770444,-0.395098,-18.104591,0.755362,-0.525628,-0.111694,-0.375041,-0.287161,-0.227101,0.000000
23.850000,221.808027,172.203307,1416.964504,7.691046,-0.674820,-18.294814,0.755362,-0.525628,-0.111694,-0.375041,-0.287161,-0.227101,0.000000
24.300000,225.252012,171.840390,1408.694043,7.616285,-0.935084,-18.461043,0.755362,-0.525628,-0.111694,-0.375041,-0.287161,-0.227101,0.000000
24.750000,228.663354,171.364545,1400.353709,7.545919,-1.176920,-18.605884,0.755362,-0.525628,-0.111694,-0.375041,-0.287161,-0.227101,0.000000
25.200000,232.043970,170.783805,1391.952351,7.479705,-1.401370,-18.731725,0.755362,-0.525628,-0.111694,-0.375041,-0.287161,-0.227101,0.000000
25.650000,235.395697,170.105867,1383.498182,7.417398,-1.609458,-18.840809,0.755362,-0.525628,-0.111694,-0.375041,-0.287161,-0.227101,0.000000
26.100000,238.720200,169.337712,1374.998074,7.358759,-1.802163,-18.935059,0.755362,-0.525628,-0.111694,-0.375041,-0.287161,-0.227101,0.000000
26.550000,242.019110,168.486171,1366.458613,7.303550,-1.980457,-19.016336,0.755362,-0.525628,-0.111694,-0.375041,-0.287161,-0.227101,0.000000
27.000000,245.293913,167.557445,1357.885224,7.251566,-2.145279,-19.086206,0.755362,-0.525628,-0.111694,-0.375041,-0.287161,-0.227101,0.000000
27.450000,248.546002,166.557338,1349.282602,7.202626,-2.297546,-19.146057,0.755362,-0.525628,-0.111694,-0.375041,-0.287161,-0.227101,0.000000
27.900000,251.776710,165.491432,1340.655123,7.156516,-2.438129,-19.197186,0.755362,-0.525628,-0.111694,-0.375041,-0.287161,-0.227101,0.000000
28.350000,254.987218,164.364734,1332.006367,7.112943,-2.567777,-19.240664,0.755362,-0.525628,-0.111694,-0.375041,-0.287161,-0.227101,0.000000
28.800000,258.178655,163.182129,1323.339740,7.071583,-2.687204,-19.277509,0.755362,-0.525628,-0.111694,-0.375041,-0.287161,-0.227101,0.000000
29.250000,261.351782,161.948082,1314.657979,7.031874,-2.796915,-19.308544,0.755362,-0.525628,-0.111694,-0.375041,-0.287161,-0.227101,0.000000
29.700000,264.507085,160.666737,1305.963329,6.993074,-2.897255,-19.334439,0.755362,-0.525628,-0.111694,-0.375041,-0.287161,-0.227101,0.000000
30.150000,267.645042,159.342235,1297.258020,6.954439,-2.988566,-19.355862,0.755362,-0.525628,-0.111694,-0.375041,-0.287161,-0.227101,0.000000
30.600000,270.765846,157.978569,1288.544049,6.915379,-3.071229,-19.373412,0.755362,-0.525628,-0.111694,-0.375041,-0.287161,-0.227101,0.000000
31.050000,273.869073,156.579422,1279.822909,6.875640,-3.145703,-19.387535,0.755362,-0.525628,-0.111694,-0.375041,-0.287161,-0.227101,0.000000
31.500000,276.954224,155.148438,1271.096030,6.835010,-3.212460,-19.398657,0.755362,-0.525628,-0.111694,-0.375041,-0.287161,-0.227101,0.000000
31.950000,280.020810,153.689183,1262.364790,6.793322,-3.271981,-19.407194,0.755362,-0.525628,-0.111694,-0.375041,-0.287161,-0.227101,0.000000
32.400000,283.068446,152.204659,1253.630225,6.750719,-3.324838,-19.413474,0.755362,-0.525628,-0.111694,-0.375041,-0.287161,-0.227101,0.000000
32.850000,286.096790,150.697633,1244.893219,6.707480,-3.371639,-19.417793,0.755362,-0.525628,-0.111694,-0.375041,-0.287161,-0.227101,0.000000
33.300000,289.105503,149.170855,1236.154653,6.663881,-3.412987,-19.420442,0.755362,-0.525628,-0.111694,-0.375041,-0.287161,-0.227101,0.000000
33.750000,292.094373,147.626756,1227.415256,6.620045,-3.449362,-19.421659,0.755362,-0.525628,-0.111694,-0.375041,-0.287161,-0.227101,0.000000
34.200000,295.063344,146.067352,1218.675567,6.575906,-3.481082,-19.421617,0.755362,-0.525628,-0.111694,-0.375041,-0.287161,-0.227101,0.000000
34.650000,298.012370,144.494638,1209.936115,6.531384,-3.508457,-19.420486,0.755362,-0.525628,-0.111694,-0.375041,-0.287161,-0.227101,0.000000
35.100000,300.941374,142.910537,1201.197389,6.486426,-3.531795,-19.418423,0.755362,-0.525628,-0.111694,-0.375041,-0.287161,-0.227101,0.000000
35.550000,303.850158,141.316707,1192.459741,6.441078,-3.551400,-19.415546,0.755362,-0.525628,-0.111694,-0.375041,-0.287161,-0.227101,0.000000
36.000000,306.738494,139.714743,1183.723491,6.395409,-3.567574,-19.411964,0.755362,-0.525628,-0.111694,-0.375041,-0.287161,-0.227101,0.000000
36.450000,309.606162,138.106224,1174.988955,6.349486,-3.580616,-19.407786,0.755362,-0.525628,-0.111694,-0.375041,-0.287161,-0.227101,0.000000
36.900000,312.453052,136.492536,1166.256430,6.303329,-3.590778,-19.403111,0.755362,-0.525628,-0.111694,-0.375041,-0.287161,-0.227101,0.000000
37.350000,315.279117,134.874894,1157.526160,6.256936,-3.598271,-19.398025,0.755362,-0.525628,-0.111694,-0.375041,-0.287161,-0.227101,0.000000
37.800000,318.084261,133.254438,1148.798272,6.210328,-3.603305,-19.392571,0.755362,-0.525628,-0.111694,-0.375041,-0.287161,-0.227101,0.000000
38.250000,320.868386,131.632235,1140.072900,6.163526,-3.606075,-19.386795,0.755362,-0.525628,-0.111694,-0.375041,-0.287161,-0.227101,0.000000
38.700000,323.631409,130.009266,1131.350191,6.116546,-3.606758,-19.380749,0.755362,-0.525628,-0.111694,-0.375041,-0.287161,-0.227101,0.000000
39.150000,326.373256,128.386409,1122.630253,6.069403,-3.605514,-19.374473,0.755362,-0.525628,-0.111694,-0.375041,-0.287161,-0.227101,0.000000
39.600000,329.093859,126.764467,1113.913175,6.022111,-3.602492,-19.368000,0.755362,-0.525628,-0.111694,-0.375041,-0.287161,-0.227101,0.000000
40.050000,331.793156,125.144198,1105.199040,5.974684,-3.597828,-19.361360,0.755362,-0.525628,-0.111694,-0.375041,-0.287161,-0.227101,0.000000
40.500000,334.471083,123.526358,1096.487927,5.927134,-3.591661,-19.354583,0.755362,-0.525628,-0.111694,-0.375041,-0.287161,-0.227101,0.000000
40.950000,337.127583,121.911669,1087.779911,5.879475,-3.584123,-19.347697,0.755362,-0.525628,-0.111694,-0.375041,-0.287161,-0.227101,0.000000
41.400000,339.762609,120.300695,1079.075032,5.831716,-3.575317,-19.340718,0.755362,-0.525628,-0.111694,-0.375041,-0.287161,-0.227101,0.000000
41.850000,342.376122,118.693956,1070.373320,5.783866,-3.565338,-19.333658,0.755362,-0.525628,-0.111694,-0.375041,-0.287161,-0.227101,0.000000
42.300000,344.968083,117.091972,1061.674806,5.735934,-3.554282,-19.326531,0.755362,-0.525628,-0.111694,-0.375041,-0.287161,-0.227101,0.000000
42.750000,347.538455,115.495209,1052.979515,5.687928,-3.542235,-19.319349,0.755362,-0.525628,-0.111694,-0.375041,-0.287161,-0.227101,0.000000
43.200000,350.087210,113.904063,1044.287463,5.639854,-3.529269,-19.312119,0.755362,-0.525628,-0.111694,-0.375041,-0.287161,-0.227101,0.000000
43.650000,352.614320,112.318930,1035.598668,5.591720,-3.515456,-19.304849,0.755362,-0.525628,-0.111694,-0.375041,-0.287161,-0.227101,0.000000
44.100000,355.119757,110.740192,1026.913146,5.543533,-3.500868,-19.297548,0.755362,-0.525628,-0.111694,-0.375041,-0.287161,-0.227101,0.000000
44.550000,357.603498,109.168186,1018.230909,5.495298,-3.485565,-19.290222,0.755362,-0.525628,-0.111694,-0.375041,-0.287161,-0.227101,0.000000
45.000000,360.065523,107.603224,1009.551969,5.447020,-3.469606,-19.282878,0.755362,-0.525628,-0.111694,-0.375041,-0.287161,-0.227101,0.000000
45.450000,362.505811,106.045619,1000.876338,5.398704,-3.453049,-19.275522,0.755362,-0.525628,-0.111694,-0.375041,-0.287161,-0.227101,0.000000
45.900000,364.924344,104.495646,992.204024,5.350357,-3.435943,-19.268160,0.755362,-0.525628,-0.111694,-0.375041,-0.287161,-0.227101,0.000000
46.350000,367.321112,102.953510,983.535026,5.301980,-3.418328,-19.260794,0.755362,-0.525628,-0.111694,-0.375041,-0.287161,-0.227101,0.000000
46.800000,369.696104,101.419409,974.869345,5.253578,-3.400239,-19.253425,0.755362,-0.525628,-0.111694,-0.375041,-0.287161,-0.227101,0.000000
47.250000,372.049311,99.893541,966.206979,5.205154,-3.381713,-19.246057,0.755362,-0.525628,-0.111694,-0.375041,-0.287161,-0.227101,0.000000
47.700000,374.380723,98.376102,957.547930,5.156711,-3.362788,-19.238691,0.755362,-0.525628,-0.111694,-0.375041,-0.287161,-0.227101,0.000000
48.150000,376.690333,96.867256,948.892193,5.108252,-3.343493,-19.231328,0.755362,-0.525628,-0.111694,-0.375041,-0.287161,-0.227101,0.000000
48.600000,378.978135,95.367144,940.239764,5.059779,-3.323855,-19.223969,0.755362,-0.525628,-0.111694,-0.375041,-0.287161,-0.227101,0.000000
49.050000,381.244126,93.875910,931.590638,5.011296,-3.303900,-19.216613,0.755362,-0.525628,-0.111694,-0.375041,-0.287161,-0.227101,0.000000
49.500000,383.488298,92.393692,922.944810,4.962803,-3.283655,-19.209263,0.755362,-0.525628,-0.111694,-0.375041,-0.287161,-0.227101,0.000000
49.950000,385.710649,90.920629,914.302277,4.914305,-3.263145,-19.201917,0.755362,-0.525628,-0.111694,-0.375041,-0.287161,-0.227101,0.000000
50.400000,387.911176,89.456832,905.663037,4.865802,-3.242392,-19.194579,0.755362,-0.525628,-0.111694,-0.375041,-0.287161,-0.227101,0.000000
50.850000,390.089878,88.002409,897.027090,4.817296,-3.221415,-19.187249,0.755362,-0.525628,-0.111694,-0.375041,-0.287161,-0.227101,0.000000
51.300000,392.246755,86.557466,888.394438,4.768790,-3.200236,-19.179931,0.755362,-0.525628,-0.111694,-0.375041,-0.287161,-0.227101,0.000000
51.750000,394.381805,85.122111,879.765078,4.720285,-3.178873,-19.172626,0.755362,-0.525628,-0.111694,-0.375041,-0.287161,-0.227101,0.000000
52.200000,396.495028,83.696433,871.139010,4.671782,-3.157345,-19.165335,0.755362,-0.525628,-0.111694,-0.375041,-0.287161,-0.227101,0.000000
52.650000,398.586423,82.280494,862.516228,4.623284,-3.135663,-19.158059,0.755362,-0.525628,-0.111694,-0.375041,-0.287161,-0.227101,0.000000
53.100000,400.655989,80.874354,853.896726,4.574790,-3.113837,-19.150797,0.755362,-0.525628,-0.111694,-0.375041,-0.287161,-0.227101,0.000000
53.550000,402.703727,79.478073,845.280498,4.526302,-3.091881,-19.143549,0.755362,-0.525628,-0.111694,-0.375041,-0.287161,-0.227101,0.000000
54.000000,404.729637,78.091709,836.667538,4.477821,-3.069804,-19.136314,0.755362,-0.525628,-0.111694,-0.375041,-0.287161,-0.227101,0.000000
54.450000,406.733729,76.715309,828.057839,4.429348,-3.047617,-19.129091,0.755362,-0.525628,-0.111694,-0.375041,-0.287161,-0.227101,0.000000
54.900000,408.716017,75.348908,819.451389,4.380883,-3.025327,-19.121880,0.755362,-0.525628,-0.111694,-0.375041,-0.287161,-0.227101,0.000000
55.350000,410.676518,73.992542,810.848180,4.332427,-3.002942,-19.114679,0.755362,-0.525628,-0.111694,-0.375041,-0.287161,-0.227101,0.000000
55.800000,412.615248,72.646248,802.248202,4.283981,-2.980472,-19.107488,0.755362,-0.525628,-0.111694,-0.375041,-0.287161,-0.227101,0.000000
56.250000,414.532212,71.310065,793.651446,4.235545,-2.957924,-19.100305,0.755362,-0.525628,-0.111694,-0.375041,-0.287161,-0.227101,0.000000
56.700000,416.427385,69.984039,785.057914,4.187121,-2.935305,-19.093131,0.755362,-0.525628,-0.111694,-0.375041,-0.287161,-0.227101,0.000000
57.150000,418.300730,68.668222,776.467606,4.138708,-2.912620,-19.085966,0.755362,-0.525628,-0.111694,-0.375041,-0.287161,-0.227101,0.000000
57.600000,420.152215,67.362663,767.880526,4.090307,-2.889877,-19.078811,0.755362,-0.525628,-0.111694,-0.375041,-0.287161,-0.227101,0.000000
58.050000,421.981803,66.067410,759.296674,4.041920,-2.867081,-19.071666,0.755362,-0.525628,-0.111694,-0.375041,-0.287161,-0.227101,0.000000
58.500000,423.789508,64.782488,750.716046,3.993545,-2.844237,-19.064533,0.755362,-0.525628,-0.111694,-0.375041,-0.287161,-0.227101,0.000000
58.950000,425.575464,63.507850,742.138622,3.945184,-2.821351,-19.057411,0.755362,-0.525628,-0.111694,-0.375041,-0.287161,-0.227101,0.000000
59.400000,427.339824,62.243438,733.564378,3.896837,-2.798423,-19.050301,0.755362,-0.525628,-0.111694,-0.375041,-0.287161,-0.227101,0.000000
59.850000,429.082744,60.989194,724.993292,3.848504,-2.775459,-19.043203,0.755362,-0.525628,-0.111694,-0.375041,-0.287161,-0.227101,0.000000
60.300000,430.804375,59.745063,716.425339,3.800184,-2.752460,-19.036120,0.755362,-0.525628,-0.111694,-0.375041,-0.287161,-0.227101,0.000000
60.750000,432.504642,58.511101,707.860527,3.751880,-2.729431,-19.029049,0.755362,-0.525628,-0.111694,-0.375041,-0.287161,-0.227101,0.000000
61.200000,434.183044,57.287575,699.298917,3.703590,-2.706377,-19.021991,0.755362,-0.525628,-0.111694,-0.375041,-0.287161,-0.227101,0.000000
61.650000,435.839037,56.074773,690.740578,3.655316,-2.683302,-19.014945,0.755362,-0.525628,-0.111694,-0.375041,-0.287161,-0.227101,0.000000
62.100000,437.472075,54.872986,682.185576,3.607059,-2.660212,-19.007909,0.755362,-0.525628,-0.111694,-0.375041,-0.287161,-0.227101,0.000000
62.550000,439.081845,53.682390,673.633945,3.558820,-2.637110,-19.000884,0.755362,-0.525628,-0.111694,-0.375041,-0.287161,-0.227101,0.000000
