# Time (s), X (m), Y (m), Z (m), Vx (m/s), Vy (m/s), Vz (m/s), e0, e1, e2, e3, ω1 (rad/s), ω2 (rad/s), ω3 (rad/s)
0.000000,0.000000,0.000000,668.000000,0.000000,0.000000,0.000000,0.886149,-0.042147,0.021924,-0.460958,0.000000,0.000000,0.000000
0.450000,0.001236,0.000867,668.015832,0.044551,0.031236,0.570695,0.886149,-0.042147,0.021924,-0.460958,0.000000,-0.000000,0.000000
0.900000,0.410795,0.287926,673.257093,2.323101,1.622832,29.417421,0.886150,-0.042150,0.021909,-0.460958,0.000645,-0.002062,0.000000
1.350000,2.498878,1.752110,698.889616,7.076259,5.109987,87.245138,0.886334,-0.043597,0.015689,-0.460722,0.013585,-0.060189,0.000000
1.800000,6.391623,4.824392,748.495347,9.588720,8.200427,125.769653,0.886574,-0.048940,0.000025,-0.459991,0.000591,-0.052900,0.000000
2.250000,10.786692,8.773347,806.660786,9.824566,9.044250,129.439116,0.886435,-0.050835,0.002167,-0.460048,-0.016361,0.043406,0.000000
2.700000,15.233884,12.853253,864.136820,9.945730,9.040310,125.733778,0.886339,-0.050249,0.006622,-0.460255,0.002870,-0.020667,0.000000
3.150000,19.715464,16.901547,919.649974,9.936517,8.963342,120.842283,0.886392,-0.053523,-0.000973,-0.459830,-0.002561,-0.030078,0.000000
3.600000,24.160207,20.921120,972.776923,9.823083,8.891351,115.220560,0.886282,-0.055679,-0.000890,-0.459785,-0.011600,0.014924,0.000000
4.050000,28.568947,24.891107,1023.341791,9.782277,8.742930,109.529916,0.886176,-0.056453,0.001728,-0.459894,-0.004312,-0.006058,0.000000
4.500000,32.960885,28.782187,1071.302578,9.728180,8.553435,103.609106,0.886141,-0.059013,-0.001910,-0.459638,-0.003145,-0.025994,0.000000
4.950000,37.318760,32.596885,1116.613644,9.638196,8.406631,97.800790,0.886040,-0.062219,-0.005047,-0.459386,-0.009356,-0.009070,0.000000
5.400000,41.637931,36.349279,1159.347201,9.563991,8.268613,92.151570,0.885885,-0.064596,-0.004404,-0.459365,-0.010945,0.000209,0.000000
5.850000,45.931055,40.036572,1199.571864,9.519645,8.118466,86.647970,0.885734,-0.067032,-0.004291,-0.459307,-0.008768,-0.011064,0.000000
6.300000,50.206122,43.657041,1237.350234,9.479422,7.975456,81.276515,0.885582,-0.070468,-0.006747,-0.459057,-0.008976,-0.020547,0.000000
6.750000,54.461210,47.217567,1272.738473,9.431132,7.852250,76.023373,0.885374,-0.074631,-0.009699,-0.458747,-0.012120,-0.018356,0.000000
7.200000,58.694257,50.726023,1305.787361,9.383544,7.742081,70.877705,0.885098,-0.078978,-0.011351,-0.458514,-0.015320,-0.012960,0.000000
7.650000,62.907661,54.185986,1336.543288,9.343608,7.635913,65.831110,0.884765,-0.083509,-0.012079,-0.458335,-0.017693,-0.012152,0.000000
8.100000,67.104183,57.598717,1365.048830,9.308391,7.532303,60.874442,0.884354,-0.088721,-0.012732,-0.458132,-0.021034,-0.014888,0.000000
8.550000,71.285822,60.965751,1391.342405,9.277229,7.433269,55.998714,0.883831,-0.095024,-0.013770,-0.457847,-0.024680,-0.019330,0.000000
9.000000,75.454066,64.289701,1415.458628,9.248602,7.341095,51.195999,0.883171,-0.102516,-0.015315,-0.457455,-0.028435,-0.023580,0.000000
9.450000,79.609785,67.573813,1437.428659,9.221465,7.256103,46.458991,0.882345,-0.111182,-0.017228,-0.456956,-0.032607,-0.027149,0.000000
9.900000,83.753561,70.821107,1457.280597,9.195505,7.177204,41.781147,0.881311,-0.121097,-0.019350,-0.456347,-0.037652,-0.030573,0.000000
10.350000,87.885921,74.033988,1475.039619,9.170759,7.102913,37.156161,0.880000,-0.132497,-0.021620,-0.455606,-0.043968,-0.034649,0.000000
10.800000,92.007434,77.214249,1490.728201,9.147291,7.032081,32.578237,0.878313,-0.145755,-0.024085,-0.454688,-0.051850,-0.039977,0.000000
11.250000,96.118668,80.363263,1504.366262,9.125049,6.963943,28.041832,0.876112,-0.161338,-0.026855,-0.453516,-0.061547,-0.046906,0.000000
11.700000,100.220142,83.482138,1515.971310,9.103888,6.898073,23.541779,0.873204,-0.179777,-0.030063,-0.451986,-0.073288,-0.055609,0.000000
12.150000,104.312303,86.571835,1525.558565,9.083629,6.834255,19.073078,0.869331,-0.201640,-0.033842,-0.449956,-0.087270,-0.066160,0.000000
12.600000,108.395523,89.633266,1533.141060,9.064137,6.772442,14.630917,0.864146,-0.227502,-0.038311,-0.447242,-0.103598,-0.078559,0.000000
13.050000,112.470126,92.667329,1538.729685,9.045311,6.712602,10.210698,0.857202,-0.257904,-0.043571,-0.443611,-0.122247,-0.092729,0.000000
13.500000,116.536358,95.674788,1542.333388,9.026860,6.653983,5.808471,0.847927,-0.293314,-0.049701,-0.438767,-0.143238,-0.108652,0.000000
13.950000,120.594185,98.655567,1543.959656,9.007601,6.592916,1.422918,0.835573,-0.334201,-0.056778,-0.432323,-0.167553,-0.127060,0.000000
14.400000,124.642591,101.606513,1543.616982,8.984232,6.519007,-2.938808,0.818967,-0.381539,-0.064965,-0.423673,-0.199652,-0.151317,0.000000
14.850000,128.678587,104.518265,1541.321238,8.951604,6.416089,-7.254640,0.795781,-0.437852,-0.074686,-0.411617,-0.249496,-0.188926,0.000000
15.300000,132.697170,107.375168,1537.101160,8.907271,6.276624,-11.490957,0.761285,-0.507817,-0.086734,-0.393712,-0.328896,-0.248768,0.000000
15.750000,136.687899,110.144628,1531.116321,8.791538,5.913840,-14.263867,0.731026,-0.559937,-0.095687,-0.378030,-0.395172,-0.298677,0.000000
16.200000,140.595858,112.654978,1524.574915,8.579733,5.251723,-14.800229,0.731028,-0.559933,-0.095686,-0.378031,-0.395167,-0.298673,0.000000
16.650000,144.411549,114.877439,1517.802023,8.381531,4.634562,-15.293015,0.731018,-0.559950,-0.095689,-0.378026,-0.395189,-0.298689,0.000000
17.100000,148.140963,116.831828,1510.817573,8.195717,4.058494,-15.741886,0.731021,-0.559945,-0.095688,-0.378027,-0.395182,-0.298684,0.000000
17.550000,151.789389,118.535721,1503.640331,8.021486,3.520934,-16.149692,0.731021,-0.559946,-0.095688,-0.378027,-0.395183,-0.298685,0.000000
18.000000,155.361867,120.005895,1496.288478,7.858075,3.019435,-16.518280,0.731021,-0.559946,-0.095688,-0.378027,-0.395184,-0.298685,0.000000
18.450000,158.863161,121.258239,1488.779279,7.704811,2.551829,-16.849907,0.731021,-0.559946,-0.095688,-0.378027,-0.395183,-0.298685,0.000000
18.900000,162.297678,122.307481,1481.128669,7.561115,2.116220,-17.147092,0.731021,-0.559946,-0.095688,-0.378027,-0.395183,-0.298685,0.000000
19.350000,165.669591,123.167596,1473.351673,7.426452,1.710864,-17.412399,0.731021,-0.559946,-0.095688,-0.378027,-0.395183,-0.298685,0.000000
19.800000,168.982825,123.851737,1465.462011,7.300317,1.334091,-17.648388,0.731021,-0.559946,-0.095688,-0.378027,-0.395183,-0.298685,0.000000
20.250000,172.241104,124.372393,1457.472330,7.182223,0.984291,-17.857597,0.731021,-0.559946,-0.095688,-0.378027,-0.395183,-0.298685,0.000000
20.700000,175.447940,124.741345,1449.394064,7.071698,0.659898,-18.042437,0.731021,-0.559946,-0.095688,-0.378027,-0.395183,-0.298685,0.000000
21.150000,178.606668,124.969788,1441.237661,6.968285,0.359387,-18.205211,0.731021,-0.559946,-0.095688,-0.378027,-0.395183,-0.298685,0.000000
21.600000,181.720388,125.068129,1433.012508,6.871549,0.081308,-18.348096,0.731021,-0.559946,-0.095688,-0.378027,-0.395183,-0.298685,0.000000
22.050000,184.792007,125.046139,1424.727133,6.781074,-0.175733,-18.473166,0.731021,-0.559946,-0.095688,-0.378027,-0.395183,-0.298685,0.000000
22.500000,187.824241,124.912947,1416.389113,6.696462,-0.413075,-18.582318,0.731021,-0.559946,-0.095688,-0.378027,-0.395183,-0.298685,0.000000
22.950000,190.819652,124.677160,1408.005260,6.617326,-0.632011,-18.677302,0.731021,-0.559946,-0.095688,-0.378027,-0.395183,-0.298685,0.000000
23.400000,193.780611,124.346748,1399.581546,6.543301,-0.833772,-18.759697,0.731021,-0.559946,-0.095688,-0.378027,-0.395183,-0.298685,0.000000
23.850000,196.709342,123.929184,1391.123296,6.474036,-1.019532,-18.830945,0.731021,-0.559946,-0.095688,-0.378027,-0.395183,-0.298685,0.000000
24.300000,199.607918,123.431435,1382.635256,6.409201,-1.190408,-18.892350,0.731021,-0.559946,-0.095688,-0.378027,-0.395183,-0.298685,0.000000
24.750000,202.478249,122.859920,1374.121543,6.348485,-1.347448,-18.945070,0.731021,-0.559946,-0.095688,-0.378027,-0.395183,-0.298685,0.000000
25.200000,205.322136,122.220689,1365.585884,6.291591,-1.491651,-18.990166,0.731021,-0.559946,-0.095688,-0.378027,-0.395183,-0.298685,0.000000
25.650000,208.141220,121.519253,1357.031442,6.238238,-1.623942,-19.028554,0.731021,-0.559946,-0.095688,-0.378027,-0.395183,-0.298685,0.000000
26.100000,210.937057,120.760839,1348.461109,6.188164,-1.745208,-19.061080,0.731021,-0.559946,-0.095688,-0.378027,-0.395183,-0.298685,0.000000
26.550000,213.711040,119.950124,1339.877273,6.141151,-1.856259,-19.088455,0.731021,-0.559946,-0.095688,-0.378027,-0.395183,-0.298685,0.000000
27.000000,216.464509,119.091597,1331.282159,6.096969,-1.957870,-19.111344,0.731021,-0.559946,-0.095688,-0.378027,-0.395183,-0.298685,0.000000
27.450000,219.198681,118.189370,1322.677664,6.055339,-2.050745,-19.130317,0.731021,-0.559946,-0.095688,-0.378027,-0.395183,-0.298685,0.000000
27.900000,221.914652,117.247366,1314.065535,6.015889,-2.135535,-19.145895,0.731021,-0.559946,-0.095688,-0.378027,-0.395183,-0.298685,0.000000
28.350000,224.612988,116.268961,1305.447098,5.977844,-2.212689,-19.158438,0.731021,-0.559946,-0.095688,-0.378027,-0.395183,-0.298685,0.000000
28.800000,227.294078,115.257343,1296.823535,5.940286,-2.282588,-19.168255,0.731021,-0.559946,-0.095688,-0.378027,-0.395183,-0.298685,0.000000
29.250000,229.958312,114.215704,1288.196028,5.902300,-2.345615,-19.175655,0.731021,-0.559946,-0.095688,-0.378027,-0.395183,-0.298685,0.000000
29.700000,232.605774,113.147162,1279.565698,5.863374,-2.402216,-19.180953,0.731021,-0.559946,-0.095688,-0.378027,-0.395183,-0.298685,0.000000
30.150000,235.235550,112.054521,1270.933414,5.824376,-2.453053,-19.184486,0.731021,-0.559946,-0.095688,-0.378027,-0.395183,-0.298685,0.000000
30.600000,237.847655,110.940231,1262.299900,5.785270,-2.498562,-19.186486,0.731021,-0.559946,-0.095688,-0.378027,-0.395183,-0.298685,0.000000
31.050000,240.442190,109.806571,1253.665788,5.745902,-2.539127,-19.187145,0.731021,-0.559946,-0.095688,-0.378027,-0.395183,-0.298685,0.000000
31.500000,243.018969,108.655692,1245.031640,5.706387,-2.575156,-19.186656,0.731021,-0.559946,-0.095688,-0.378027,-0.395183,-0.298685,0.000000
31.950000,245.577919,107.489558,1236.397944,5.666716,-2.607003,-19.185176,0.731021,-0.559946,-0.095688,-0.378027,-0.395183,-0.298685,0.000000
32.400000,248.118987,106.309962,1227.765109,5.626905,-2.634997,-19.182843,0.731021,-0.559946,-0.095688,-0.378027,-0.395183,-0.298685,0.000000
32.850000,250.642113,105.118569,1219.133488,5.586968,-2.659442,-19.179773,0.731021,-0.559946,-0.095688,-0.378027,-0.395183,-0.298685,0.000000
33.300000,253.147242,103.916920,1210.503395,5.546915,-2.680622,-19.176073,0.731021,-0.559946,-0.095688,-0.378027,-0.395183,-0.298685,0.000000
33.750000,255.634322,102.706431,1201.875095,5.506758,-2.698797,-19.171833,0.731021,-0.559946,-0.095688,-0.378027,-0.395183,-0.298685,0.000000
34.200000,258.103311,101.488386,1193.248807,5.466507,-2.714203,-19.167127,0.731021,-0.559946,-0.095688,-0.378027,-0.395183,-0.298685,0.000000
34.650000,260.554167,100.264000,1184.624732,5.426171,-2.727064,-19.162025,0.731021,-0.559946,-0.095688,-0.378027,-0.395183,-0.298685,0.000000
35.100000,262.986852,99.034413,1176.003051,5.385758,-2.737591,-19.156589,0.731021,-0.559946,-0.095688,-0.378027,-0.395183,-0.298685,0.000000
35.550000,265.401335,97.800579,1167.383888,5.345275,-2.745959,-19.150863,0.731021,-0.559946,-0.095688,-0.378027,-0.395183,-0.298685,0.000000
36.000000,267.797588,96.563405,1158.767356,5.304730,-2.752336,-19.144888,0.731021,-0.559946,-0.095688,-0.378027,-0.395183,-0.298685,0.000000
36.450000,270.175582,95.323794,1150.153566,5.264129,-2.756889,-19.138703,0.731021,-0.559946,-0.095688,-0.378027,-0.395183,-0.298685,0.000000
36.900000,272.535291,94.082580,1141.542613,5.223478,-2.759772,-19.132342,0.731021,-0.559946,-0.095688,-0.378027,-0.395183,-0.298685,0.000000
37.350000,274.876697,92.840422,1132.934554,5.182782,-2.761107,-19.125827,0.731021,-0.559946,-0.095688,-0.378027,-0.395183,-0.298685,0.000000
37.800000,277.199783,91.597950,1124.329438,5.142046,-2.761012,-19.119177,0.731021,-0.559946,-0.095688,-0.378027,-0.395183,-0.298685,0.000000
38.250000,279.504530,90.355797,1115.727313,5.101275,-2.759602,-19.112411,0.731021,-0.559946,-0.095688,-0.378027,-0.395183,-0.298685,0.000000
38.700000,281.790924,89.114538,1107.128228,5.060472,-2.756986,-19.105547,0.731021,-0.559946,-0.095688,-0.378027,-0.395183,-0.298685,0.000000
39.150000,284.058952,87.874672,1098.532228,5.019642,-2.753256,-19.098603,0.731021,-0.559946,-0.095688,-0.378027,-0.395183,-0.298685,0.000000
39.600000,286.308603,86.636691,1089.939357,4.978788,-2.748502,-19.091597,0.731021,-0.559946,-0.095688,-0.378027,-0.395183,-0.298685,0.000000
40.050000,288.539863,85.401084,1081.349658,4.937914,-2.742816,-19.084546,0.731021,-0.559946,-0.095688,-0.378027,-0.395183,-0.298685,0.000000
40.500000,290.752725,84.168259,1072.763159,4.897023,-2.736274,-19.077462,0.731021,-0.559946,-0.095688,-0.378027,-0.395183,-0.298685,0.000000
40.950000,292.947182,82.938556,1064.179869,4.856116,-2.728938,-19.070349,0.731021,-0.559946,-0.095688,-0.378027,-0.395183,-0.298685,0.000000
41.400000,295.123229,81.712314,1055.599799,4.815198,-2.720872,-19.063215,0.731021,-0.559946,-0.095688,-0.378027,-0.395183,-0.298685,0.000000
41.850000,297.280859,80.489864,1047.022960,4.774269,-2.712138,-19.056065,0.731021,-0.559946,-0.095688,-0.378027,-0.395183,-0.298685,0.000000
42.300000,299.420069,79.271490,1038.449353,4.733333,-2.702788,-19.048901,0.731021,-0.559946,-0.095688,-0.378027,-0.395183,-0.298685,0.000000
42.750000,301.540856,78.057450,1029.878978,4.692390,-2.692871,-19.041725,0.731021,-0.559946,-0.095688,-0.378027,-0.395183,-0.298685,0.000000
43.200000,303.643219,76.848000,1021.311834,4.651443,-2.682434,-19.034538,0.731021,-0.559946,-0.095688,-0.378027,-0.395183,-0.298685,0.000000
43.650000,305.727153,75.643387,1012.747919,4.610494,-2.671523,-19.027342,0.731021,-0.559946,-0.095688,-0.378027,-0.395183,-0.298685,0.000000
44.100000,307.792661,74.443794,1004.187233,4.569543,-2.660173,-19.020140,0.731021,-0.559946,-0.095688,-0.378027,-0.395183,-0.298685,0.000000
44.550000,309.839740,73.249389,995.629775,4.528593,-2.648416,-19.012931,0.731021,-0.559946,-0.095688,-0.378027,-0.395183,-0.298685,0.000000
45.000000,311.868393,72.060337,987.075544,4.487643,-2.636282,-19.005719,0.731021,-0.559946,-0.095688,-0.378027,-0.395183,-0.298685,0.000000
45.450000,313.878619,70.876807,978.524540,4.446696,-2.623802,-18.998504,0.731021,-0.559946,-0.095688,-0.378027,-0.395183,-0.298685,0.000000
45.900000,315.870418,69.698963,969.976761,4.405753,-2.611008,-18.991289,0.731021,-0.559946,-0.095688,-0.378027,-0.395183,-0.298685,0.000000
46.350000,317.843794,68.526944,961.432210,4.364814,-2.597926,-18.984077,0.731021,-0.559946,-0.095688,-0.378027,-0.395183,-0.298685,0.000000
46.800000,319.798748,67.360860,952.890891,4.323880,-2.584576,-18.976870,0.731021,-0.559946,-0.095688,-0.378027,-0.395183,-0.298685,0.000000
47.250000,321.735287,66.200821,944.352807,4.282953,-2.570980,-18.969672,0.731021,-0.559946,-0.095688,-0.378027,-0.395183,-0.298685,0.000000
47.700000,323.653414,65.046937,935.817962,4.242033,-2.557158,-18.962486,0.731021,-0.559946,-0.095688,-0.378027,-0.395183,-0.298685,0.000000
48.150000,325.553133,63.899316,927.286360,4.201120,-2.543132,-18.955317,0.731021,-0.559946,-0.095688,-0.378027,-0.395183,-0.298685,0.000000
48.600000,327.434447,62.758061,918.758003,4.160216,-2.528920,-18.948166,0.731021,-0.559946,-0.095688,-0.378027,-0.395183,-0.298685,0.000000
49.050000,329.297356,61.623247,910.232884,4.119321,-2.514536,-18.941032,0.731021,-0.559946,-0.095688,-0.378027,-0.395183,-0.298685,0.000000
49.500000,331.141860,60.494942,901.710997,4.078435,-2.499994,-18.933916,0.731021,-0.559946,-0.095688,-0.378027,-0.395183,-0.298685,0.000000
49.950000,332.967957,59.373216,893.192333,4.037559,-2.485306,-18.926815,0.731021,-0.559946,-0.095688,-0.378027,-0.395183,-0.298685,0.000000
50.400000,334.775647,58.258137,884.676886,3.996694,-2.470485,-18.919727,0.731021,-0.559946,-0.095688,-0.378027,-0.395183,-0.298685,0.000000
50.850000,336.564929,57.149775,876.164647,3.955840,-2.455544,-18.912653,0.731021,-0.559946,-0.095688,-0.378027,-0.395183,-0.298685,0.000000
51.300000,338.335819,56.048176,867.655604,3.914996,-2.440492,-18.905590,0.731021,-0.559946,-0.095688,-0.378027,-0.395183,-0.298685,0.000000
51.750000,340.088340,54.953372,859.149744,3.874165,-2.425338,-18.898536,0.731021,-0.559946,-0.095688,-0.378027,-0.395183,-0.298685,0.000000
52.200000,341.822518,53.865397,850.647050,3.833344,-2.410089,-18.891487,0.731021,-0.559946,-0.095688,-0.378027,-0.395183,-0.298685,0.000000
52.650000,343.538379,52.784282,842.147510,3.792536,-2.394754,-18.884443,0.731021,-0.559946,-0.095688,-0.378027,-0.395183,-0.298685,0.000000
53.100000,345.235946,51.710060,833.651106,3.751740,-2.379340,-18.877400,0.731021,-0.559946,-0.095688,-0.378027,-0.395183,-0.298685,0.000000
53.550000,346.915222,50.642768,825.157834,3.710956,-2.363854,-18.870357,0.731021,-0.559946,-0.095688,-0.378027,-0.395183,-0.298685,0.000000
54.000000,348.576148,49.582458,816.667705,3.670184,-2.348303,-18.863318,0.731021,-0.559946,-0.095688,-0.378027,-0.395183,-0.298685,0.000000
54.450000,350.218656,48.529187,808.180733,3.629426,-2.332690,-18.856283,0.731021,-0.559946,-0.095688,-0.378027,-0.395183,-0.298685,0.000000
54.900000,351.842678,47.483009,799.696935,3.588680,-2.317021,-18.849257,0.731021,-0.559946,-0.095688,-0.378027,-0.395183,-0.298685,0.000000
55.350000,353.448147,46.443978,791.216325,3.547948,-2.301302,-18.842241,0.731021,-0.559946,-0.095688,-0.378027,-0.395183,-0.298685,0.000000
55.800000,355.035017,45.412139,782.738914,3.507230,-2.285538,-18.835240,0.731021,-0.559946,-0.095688,-0.378027,-0.395183,-0.298685,0.000000
56.250000,356.603476,44.387441,774.264671,3.466525,-2.269732,-18.828253,0.731021,-0.559946,-0.095688,-0.378027,-0.395183,-0.298685,0.000000
56.700000,358.153844,43.369775,765.793540,3.425834,-2.253888,-18.821282,0.731021,-0.559946,-0.095688,-0.378027,-0.395183,-0.298685,0.000000
57.150000,359.686440,42.359033,757.325466,3.385156,-2.238011,-18.814327,0.731021,-0.559946,-0.095688,-0.378027,-0.395183,-0.298685,0.000000
57.600000,361.201585,41.355106,748.860393,3.344491,-2.222103,-18.807389,0.731021,-0.559946,-0.095688,-0.378027,-0.395183,-0.298685,0.000000
58.050000,362.699482,40.357931,740.398284,3.303840,-2.206169,-18.800468,0.731021,-0.559946,-0.095688,-0.378027,-0.395183,-0.298685,0.000000
58.500000,364.179402,39.367812,731.939255,3.263202,-2.190209,-18.793562,0.731021,-0.559946,-0.095688,-0.378027,-0.395183,-0.298685,0.000000
58.950000,365.640165,38.385229,723.483493,3.222579,-2.174227,-18.786670,0.731021,-0.559946,-0.095688,-0.378027,-0.395183,-0.298685,0.000000
59.400000,367.080591,37.410662,715.031187,3.181972,-2.158223,-18.779790,0.731021,-0.559946,-0.095688,-0.378027,-0.395183,-0.298685,0.000000
59.850000,368.499499,36.444592,706.582524,3.141382,-2.142198,-18.772919,0.731021,-0.559946,-0.095688,-0.378027,-0.395183,-0.298685,0.000000
60.300000,369.896333,35.487251,698.137589,3.100809,-2.126156,-18.766056,0.731021,-0.559946,-0.095688,-0.378027,-0.395183,-0.298685,0.000000
60.750000,371.274633,34.537242,689.695782,3.060250,-2.110099,-18.759198,0.731021,-0.559946,-0.095688,-0.378027,-0.395183,-0.298685,0.000000
61.200000,372.639588,33.592513,681.256226,3.019702,-2.094031,-18.752345,0.731021,-0.559946,-0.095688,-0.378027,-0.395183,-0.298685,0.000000
61.650000,373.996387,32.651010,672.818047,2.979160,-2.077957,-18.745494,0.731021,-0.559946,-0.095688,-0.378027,-0.395183,-0.298685,0.000000
